 ****************** Start WS v. 1.5 at 24-Sep-12 18:16:16 ******************
 
 multi none revert,0,0,0,0,0,0
 energy   5.300 GeV   current 250.0 mA
 period  12.000  cm   N        49.0      Kx      0.000      Ky      9.000
 emin     500.0  eV   emax 100000.0 eV   ne       5000
 d       20.000   m   xpc     1.000 mm   ypc     0.500 mm
 xps      0.500  mm   yps     0.250 mm   nxp        10      nyp        10
 
 b0       0.803   T   ec0    15.005  keV
 e1        53.6  eV   l1    231.466  A
 ptot   16855.5   W   pd      210.2  W/mm^2
 
 Flux through   0.500 mm x  0.250 mm pinhole at  1.000 mm,  0.500 mm @ 20.000 m:
 Integrated flux   1.202E+16 ph/s
 Integrated power       23.1 W
 
 Energy(eV)   Flux(ph/s/0.1%bw)   p1      p2      p3      p4
    500.000   8.590643E+11     0.981   0.000   0.000   0.019
    519.904   8.814033E+11     0.980   0.000   0.000   0.020
    539.808   9.034297E+11     0.980   0.000   0.000   0.020
    559.712   9.251575E+11     0.979   0.000   0.000   0.021
    579.616   9.465995E+11     0.979   0.000   0.000   0.021
    599.520   9.677675E+11     0.979   0.000   0.000   0.021
    619.424   9.886725E+11     0.978   0.000   0.000   0.022
    639.328   1.009325E+12     0.978   0.000   0.000   0.022
    659.232   1.029733E+12     0.977   0.000   0.000   0.023
    679.136   1.049907E+12     0.977   0.000   0.000   0.023
    699.040   1.069854E+12     0.977   0.000   0.000   0.023
    718.944   1.089582E+12     0.976   0.000   0.000   0.024
    738.848   1.109098E+12     0.976   0.000   0.000   0.024
    758.752   1.128409E+12     0.976   0.000   0.000   0.024
    778.656   1.147521E+12     0.975   0.000   0.000   0.025
    798.560   1.166439E+12     0.975   0.000   0.000   0.025
    818.464   1.185171E+12     0.975   0.000   0.000   0.025
    838.368   1.203720E+12     0.974   0.000   0.000   0.026
    858.272   1.222091E+12     0.974   0.000   0.000   0.026
    878.176   1.240290E+12     0.974   0.000   0.000   0.026
    898.080   1.258321E+12     0.973   0.000   0.000   0.027
    917.984   1.276188E+12     0.973   0.000   0.000   0.027
    937.888   1.293895E+12     0.973   0.000   0.000   0.027
    957.792   1.311447E+12     0.972   0.000   0.000   0.028
    977.696   1.328845E+12     0.972   0.000   0.000   0.028
    997.600   1.346095E+12     0.972   0.000   0.000   0.028
   1017.504   1.363199E+12     0.971   0.000   0.000   0.029
   1037.407   1.380161E+12     0.971   0.000   0.000   0.029
   1057.311   1.396983E+12     0.971   0.000   0.000   0.029
   1077.215   1.413669E+12     0.970   0.000   0.000   0.030
   1097.119   1.430221E+12     0.970   0.000   0.000   0.030
   1117.023   1.446642E+12     0.970   0.000   0.000   0.030
   1136.927   1.462935E+12     0.970   0.000   0.000   0.030
   1156.831   1.479101E+12     0.969   0.000   0.000   0.031
   1176.735   1.495144E+12     0.969   0.000   0.000   0.031
   1196.639   1.511065E+12     0.969   0.000   0.000   0.031
   1216.543   1.526867E+12     0.968   0.000   0.000   0.032
   1236.447   1.542552E+12     0.968   0.000   0.000   0.032
   1256.351   1.558122E+12     0.968   0.000   0.000   0.032
   1276.255   1.573578E+12     0.968   0.000   0.000   0.032
   1296.159   1.588923E+12     0.967   0.000   0.000   0.033
   1316.063   1.604159E+12     0.967   0.000   0.000   0.033
   1335.967   1.619287E+12     0.967   0.000   0.000   0.033
   1355.871   1.634309E+12     0.967   0.000   0.000   0.033
   1375.775   1.649227E+12     0.966   0.000   0.000   0.034
   1395.679   1.664041E+12     0.966   0.000   0.000   0.034
   1415.583   1.678755E+12     0.966   0.000   0.000   0.034
   1435.487   1.693369E+12     0.966   0.000   0.000   0.034
   1455.391   1.707884E+12     0.965   0.000   0.000   0.035
   1475.295   1.722303E+12     0.965   0.000   0.000   0.035
   1495.199   1.736626E+12     0.965   0.000   0.000   0.035
   1515.103   1.750854E+12     0.965   0.000   0.000   0.035
   1535.007   1.764990E+12     0.964   0.000   0.000   0.036
   1554.911   1.779034E+12     0.964   0.000   0.000   0.036
   1574.815   1.792988E+12     0.964   0.000   0.000   0.036
   1594.719   1.806852E+12     0.964   0.000   0.000   0.036
   1614.623   1.820628E+12     0.964   0.000   0.000   0.036
   1634.527   1.834317E+12     0.963   0.000   0.000   0.037
   1654.431   1.847919E+12     0.963   0.000   0.000   0.037
   1674.335   1.861437E+12     0.963   0.000   0.000   0.037
   1694.239   1.874871E+12     0.963   0.000   0.000   0.037
   1714.143   1.888222E+12     0.962   0.000   0.000   0.038
   1734.047   1.901491E+12     0.962   0.000   0.000   0.038
   1753.951   1.914679E+12     0.962   0.000   0.000   0.038
   1773.855   1.927787E+12     0.962   0.000   0.000   0.038
   1793.759   1.940816E+12     0.962   0.000   0.000   0.038
   1813.663   1.953766E+12     0.961   0.000   0.000   0.039
   1833.567   1.966639E+12     0.961   0.000   0.000   0.039
   1853.471   1.979435E+12     0.961   0.000   0.000   0.039
   1873.375   1.992155E+12     0.961   0.000   0.000   0.039
   1893.279   2.004801E+12     0.961   0.000   0.000   0.039
   1913.183   2.017372E+12     0.960   0.000   0.000   0.040
   1933.087   2.029870E+12     0.960   0.000   0.000   0.040
   1952.991   2.042295E+12     0.960   0.000   0.000   0.040
   1972.895   2.054648E+12     0.960   0.000   0.000   0.040
   1992.799   2.066930E+12     0.960   0.000   0.000   0.040
   2012.703   2.079141E+12     0.959   0.000   0.000   0.041
   2032.607   2.091282E+12     0.959   0.000   0.000   0.041
   2052.511   2.103354E+12     0.959   0.000   0.000   0.041
   2072.414   2.115358E+12     0.959   0.000   0.000   0.041
   2092.318   2.127293E+12     0.959   0.000   0.000   0.041
   2112.222   2.139162E+12     0.958   0.000   0.000   0.042
   2132.126   2.150963E+12     0.958   0.000   0.000   0.042
   2152.030   2.162699E+12     0.958   0.000   0.000   0.042
   2171.934   2.174369E+12     0.958   0.000   0.000   0.042
   2191.838   2.185974E+12     0.958   0.000   0.000   0.042
   2211.742   2.197515E+12     0.958   0.000   0.000   0.042
   2231.646   2.208993E+12     0.957   0.000   0.000   0.043
   2251.550   2.220406E+12     0.957   0.000   0.000   0.043
   2271.454   2.231758E+12     0.957   0.000   0.000   0.043
   2291.358   2.243047E+12     0.957   0.000   0.000   0.043
   2311.262   2.254275E+12     0.957   0.000   0.000   0.043
   2331.166   2.265441E+12     0.957   0.000   0.000   0.043
   2351.070   2.276547E+12     0.956   0.000   0.000   0.044
   2370.974   2.287593E+12     0.956   0.000   0.000   0.044
   2390.878   2.298579E+12     0.956   0.000   0.000   0.044
   2410.782   2.309506E+12     0.956   0.000   0.000   0.044
   2430.686   2.320374E+12     0.956   0.000   0.000   0.044
   2450.590   2.331184E+12     0.955   0.000   0.000   0.045
   2470.494   2.341936E+12     0.955   0.000   0.000   0.045
   2490.398   2.352631E+12     0.955   0.000   0.000   0.045
   2510.302   2.363269E+12     0.955   0.000   0.000   0.045
   2530.206   2.373851E+12     0.955   0.000   0.000   0.045
   2550.110   2.384376E+12     0.955   0.000   0.000   0.045
   2570.014   2.394846E+12     0.955   0.000   0.000   0.045
   2589.918   2.405261E+12     0.954   0.000   0.000   0.046
   2609.822   2.415621E+12     0.954   0.000   0.000   0.046
   2629.726   2.425926E+12     0.954   0.000   0.000   0.046
   2649.630   2.436178E+12     0.954   0.000   0.000   0.046
   2669.534   2.446376E+12     0.954   0.000   0.000   0.046
   2689.438   2.456520E+12     0.954   0.000   0.000   0.046
   2709.342   2.466612E+12     0.953   0.000   0.000   0.047
   2729.246   2.476651E+12     0.953   0.000   0.000   0.047
   2749.150   2.486638E+12     0.953   0.000   0.000   0.047
   2769.054   2.496573E+12     0.953   0.000   0.000   0.047
   2788.958   2.506457E+12     0.953   0.000   0.000   0.047
   2808.862   2.516289E+12     0.953   0.000   0.000   0.047
   2828.766   2.526071E+12     0.953   0.000   0.000   0.047
   2848.670   2.535803E+12     0.952   0.000   0.000   0.048
   2868.574   2.545484E+12     0.952   0.000   0.000   0.048
   2888.478   2.555116E+12     0.952   0.000   0.000   0.048
   2908.382   2.564698E+12     0.952   0.000   0.000   0.048
   2928.286   2.574231E+12     0.952   0.000   0.000   0.048
   2948.190   2.583715E+12     0.952   0.000   0.000   0.048
   2968.094   2.593151E+12     0.951   0.000   0.000   0.049
   2987.998   2.602538E+12     0.951   0.000   0.000   0.049
   3007.902   2.611878E+12     0.951   0.000   0.000   0.049
   3027.806   2.621170E+12     0.951   0.000   0.000   0.049
   3047.710   2.630415E+12     0.951   0.000   0.000   0.049
   3067.614   2.639613E+12     0.951   0.000   0.000   0.049
   3087.518   2.648764E+12     0.951   0.000   0.000   0.049
   3107.421   2.657868E+12     0.951   0.000   0.000   0.049
   3127.325   2.666927E+12     0.950   0.000   0.000   0.050
   3147.229   2.675939E+12     0.950   0.000   0.000   0.050
   3167.133   2.684906E+12     0.950   0.000   0.000   0.050
   3187.037   2.693828E+12     0.950   0.000   0.000   0.050
   3206.941   2.702705E+12     0.950   0.000   0.000   0.050
   3226.845   2.711537E+12     0.950   0.000   0.000   0.050
   3246.749   2.720324E+12     0.950   0.000   0.000   0.050
   3266.653   2.729067E+12     0.949   0.000   0.000   0.051
   3286.557   2.737766E+12     0.949   0.000   0.000   0.051
   3306.461   2.746421E+12     0.949   0.000   0.000   0.051
   3326.365   2.755033E+12     0.949   0.000   0.000   0.051
   3346.269   2.763601E+12     0.949   0.000   0.000   0.051
   3366.173   2.772127E+12     0.949   0.000   0.000   0.051
   3386.077   2.780609E+12     0.949   0.000   0.000   0.051
   3405.981   2.789049E+12     0.949   0.000   0.000   0.051
   3425.885   2.797447E+12     0.948   0.000   0.000   0.052
   3445.789   2.805802E+12     0.948   0.000   0.000   0.052
   3465.693   2.814116E+12     0.948   0.000   0.000   0.052
   3485.597   2.822388E+12     0.948   0.000   0.000   0.052
   3505.501   2.830619E+12     0.948   0.000   0.000   0.052
   3525.405   2.838809E+12     0.948   0.000   0.000   0.052
   3545.309   2.846957E+12     0.948   0.000   0.000   0.052
   3565.213   2.855065E+12     0.948   0.000   0.000   0.052
   3585.117   2.863132E+12     0.947   0.000   0.000   0.053
   3605.021   2.871159E+12     0.947   0.000   0.000   0.053
   3624.925   2.879146E+12     0.947   0.000   0.000   0.053
   3644.829   2.887093E+12     0.947   0.000   0.000   0.053
   3664.733   2.895000E+12     0.947   0.000   0.000   0.053
   3684.637   2.902868E+12     0.947   0.000   0.000   0.053
   3704.541   2.910696E+12     0.947   0.000   0.000   0.053
   3724.445   2.918486E+12     0.947   0.000   0.000   0.053
   3744.349   2.926236E+12     0.946   0.000   0.000   0.054
   3764.253   2.933948E+12     0.946   0.000   0.000   0.054
   3784.157   2.941621E+12     0.946   0.000   0.000   0.054
   3804.061   2.949256E+12     0.946   0.000   0.000   0.054
   3823.965   2.956853E+12     0.946   0.000   0.000   0.054
   3843.869   2.964412E+12     0.946   0.000   0.000   0.054
   3863.773   2.971933E+12     0.946   0.000   0.000   0.054
   3883.677   2.979417E+12     0.946   0.000   0.000   0.054
   3903.581   2.986863E+12     0.946   0.000   0.000   0.054
   3923.485   2.994272E+12     0.945   0.000   0.000   0.055
   3943.389   3.001644E+12     0.945   0.000   0.000   0.055
   3963.293   3.008980E+12     0.945   0.000   0.000   0.055
   3983.197   3.016278E+12     0.945   0.000   0.000   0.055
   4003.101   3.023541E+12     0.945   0.000   0.000   0.055
   4023.005   3.030767E+12     0.945   0.000   0.000   0.055
   4042.909   3.037956E+12     0.945   0.000   0.000   0.055
   4062.813   3.045110E+12     0.945   0.000   0.000   0.055
   4082.717   3.052228E+12     0.945   0.000   0.000   0.055
   4102.621   3.059311E+12     0.944   0.000   0.000   0.056
   4122.525   3.066358E+12     0.944   0.000   0.000   0.056
   4142.428   3.073370E+12     0.944   0.000   0.000   0.056
   4162.332   3.080346E+12     0.944   0.000   0.000   0.056
   4182.236   3.087288E+12     0.944   0.000   0.000   0.056
   4202.140   3.094195E+12     0.944   0.000   0.000   0.056
   4222.044   3.101067E+12     0.944   0.000   0.000   0.056
   4241.948   3.107905E+12     0.944   0.000   0.000   0.056
   4261.852   3.114708E+12     0.944   0.000   0.000   0.056
   4281.756   3.121477E+12     0.943   0.000   0.000   0.057
   4301.660   3.128213E+12     0.943   0.000   0.000   0.057
   4321.564   3.134914E+12     0.943   0.000   0.000   0.057
   4341.468   3.141582E+12     0.943   0.000   0.000   0.057
   4361.372   3.148216E+12     0.943   0.000   0.000   0.057
   4381.276   3.154817E+12     0.943   0.000   0.000   0.057
   4401.180   3.161385E+12     0.943   0.000   0.000   0.057
   4421.084   3.167919E+12     0.943   0.000   0.000   0.057
   4440.988   3.174421E+12     0.943   0.000   0.000   0.057
   4460.892   3.180889E+12     0.943   0.000   0.000   0.057
   4480.796   3.187325E+12     0.942   0.000   0.000   0.058
   4500.700   3.193729E+12     0.942   0.000   0.000   0.058
   4520.604   3.200100E+12     0.942   0.000   0.000   0.058
   4540.508   3.206439E+12     0.942   0.000   0.000   0.058
   4560.412   3.212746E+12     0.942   0.000   0.000   0.058
   4580.316   3.219020E+12     0.942   0.000   0.000   0.058
   4600.220   3.225263E+12     0.942   0.000   0.000   0.058
   4620.124   3.231475E+12     0.942   0.000   0.000   0.058
   4640.028   3.237655E+12     0.942   0.000   0.000   0.058
   4659.932   3.243803E+12     0.942   0.000   0.000   0.058
   4679.836   3.249920E+12     0.941   0.000   0.000   0.059
   4699.740   3.256006E+12     0.941   0.000   0.000   0.059
   4719.644   3.262061E+12     0.941   0.000   0.000   0.059
   4739.548   3.268085E+12     0.941   0.000   0.000   0.059
   4759.452   3.274078E+12     0.941   0.000   0.000   0.059
   4779.356   3.280041E+12     0.941   0.000   0.000   0.059
   4799.260   3.285973E+12     0.941   0.000   0.000   0.059
   4819.164   3.291875E+12     0.941   0.000   0.000   0.059
   4839.068   3.297746E+12     0.941   0.000   0.000   0.059
   4858.972   3.303587E+12     0.941   0.000   0.000   0.059
   4878.876   3.309399E+12     0.941   0.000   0.000   0.059
   4898.780   3.315180E+12     0.940   0.000   0.000   0.060
   4918.684   3.320932E+12     0.940   0.000   0.000   0.060
   4938.588   3.326654E+12     0.940   0.000   0.000   0.060
   4958.492   3.332347E+12     0.940   0.000   0.000   0.060
   4978.396   3.338010E+12     0.940   0.000   0.000   0.060
   4998.300   3.343644E+12     0.940   0.000   0.000   0.060
   5018.204   3.349249E+12     0.940   0.000   0.000   0.060
   5038.108   3.354825E+12     0.940   0.000   0.000   0.060
   5058.012   3.360372E+12     0.940   0.000   0.000   0.060
   5077.916   3.365890E+12     0.940   0.000   0.000   0.060
   5097.820   3.371379E+12     0.940   0.000   0.000   0.060
   5117.724   3.376840E+12     0.939   0.000   0.000   0.061
   5137.628   3.382272E+12     0.939   0.000   0.000   0.061
   5157.532   3.387676E+12     0.939   0.000   0.000   0.061
   5177.435   3.393052E+12     0.939   0.000   0.000   0.061
   5197.339   3.398400E+12     0.939   0.000   0.000   0.061
   5217.243   3.403719E+12     0.939   0.000   0.000   0.061
   5237.147   3.409011E+12     0.939   0.000   0.000   0.061
   5257.051   3.414275E+12     0.939   0.000   0.000   0.061
   5276.955   3.419512E+12     0.939   0.000   0.000   0.061
   5296.859   3.424720E+12     0.939   0.000   0.000   0.061
   5316.763   3.429902E+12     0.939   0.000   0.000   0.061
   5336.667   3.435056E+12     0.938   0.000   0.000   0.062
   5356.571   3.440182E+12     0.938   0.000   0.000   0.062
   5376.475   3.445282E+12     0.938   0.000   0.000   0.062
   5396.379   3.450354E+12     0.938   0.000   0.000   0.062
   5416.283   3.455400E+12     0.938   0.000   0.000   0.062
   5436.187   3.460419E+12     0.938   0.000   0.000   0.062
   5456.091   3.465411E+12     0.938   0.000   0.000   0.062
   5475.995   3.470376E+12     0.938   0.000   0.000   0.062
   5495.899   3.475315E+12     0.938   0.000   0.000   0.062
   5515.803   3.480228E+12     0.938   0.000   0.000   0.062
   5535.707   3.485114E+12     0.938   0.000   0.000   0.062
   5555.611   3.489974E+12     0.938   0.000   0.000   0.062
   5575.515   3.494808E+12     0.937   0.000   0.000   0.063
   5595.419   3.499616E+12     0.937   0.000   0.000   0.063
   5615.323   3.504398E+12     0.937   0.000   0.000   0.063
   5635.227   3.509154E+12     0.937   0.000   0.000   0.063
   5655.131   3.513884E+12     0.937   0.000   0.000   0.063
   5675.035   3.518589E+12     0.937   0.000   0.000   0.063
   5694.939   3.523269E+12     0.937   0.000   0.000   0.063
   5714.843   3.527922E+12     0.937   0.000   0.000   0.063
   5734.747   3.532551E+12     0.937   0.000   0.000   0.063
   5754.651   3.537154E+12     0.937   0.000   0.000   0.063
   5774.555   3.541732E+12     0.937   0.000   0.000   0.063
   5794.459   3.546285E+12     0.937   0.000   0.000   0.063
   5814.363   3.550814E+12     0.937   0.000   0.000   0.063
   5834.267   3.555317E+12     0.936   0.000   0.000   0.064
   5854.171   3.559795E+12     0.936   0.000   0.000   0.064
   5874.075   3.564249E+12     0.936   0.000   0.000   0.064
   5893.979   3.568678E+12     0.936   0.000   0.000   0.064
   5913.883   3.573083E+12     0.936   0.000   0.000   0.064
   5933.787   3.577463E+12     0.936   0.000   0.000   0.064
   5953.691   3.581819E+12     0.936   0.000   0.000   0.064
   5973.595   3.586151E+12     0.936   0.000   0.000   0.064
   5993.499   3.590459E+12     0.936   0.000   0.000   0.064
   6013.403   3.594742E+12     0.936   0.000   0.000   0.064
   6033.307   3.599002E+12     0.936   0.000   0.000   0.064
   6053.211   3.603238E+12     0.936   0.000   0.000   0.064
   6073.115   3.607450E+12     0.936   0.000   0.000   0.064
   6093.019   3.611638E+12     0.935   0.000   0.000   0.065
   6112.923   3.615803E+12     0.935   0.000   0.000   0.065
   6132.827   3.619944E+12     0.935   0.000   0.000   0.065
   6152.731   3.624061E+12     0.935   0.000   0.000   0.065
   6172.635   3.628156E+12     0.935   0.000   0.000   0.065
   6192.539   3.632227E+12     0.935   0.000   0.000   0.065
   6212.442   3.636274E+12     0.935   0.000   0.000   0.065
   6232.346   3.640299E+12     0.935   0.000   0.000   0.065
   6252.250   3.644301E+12     0.935   0.000   0.000   0.065
   6272.154   3.648280E+12     0.935   0.000   0.000   0.065
   6292.058   3.652235E+12     0.935   0.000   0.000   0.065
   6311.962   3.656169E+12     0.935   0.000   0.000   0.065
   6331.866   3.660079E+12     0.935   0.000   0.000   0.065
   6351.770   3.663967E+12     0.935   0.000   0.000   0.065
   6371.674   3.667832E+12     0.934   0.000   0.000   0.066
   6391.578   3.671675E+12     0.934   0.000   0.000   0.066
   6411.482   3.675495E+12     0.934   0.000   0.000   0.066
   6431.386   3.679293E+12     0.934   0.000   0.000   0.066
   6451.290   3.683069E+12     0.934   0.000   0.000   0.066
   6471.194   3.686823E+12     0.934   0.000   0.000   0.066
   6491.098   3.690555E+12     0.934   0.000   0.000   0.066
   6511.002   3.694265E+12     0.934   0.000   0.000   0.066
   6530.906   3.697952E+12     0.934   0.000   0.000   0.066
   6550.810   3.701618E+12     0.934   0.000   0.000   0.066
   6570.714   3.705263E+12     0.934   0.000   0.000   0.066
   6590.618   3.708885E+12     0.934   0.000   0.000   0.066
   6610.522   3.712486E+12     0.934   0.000   0.000   0.066
   6630.426   3.716066E+12     0.934   0.000   0.000   0.066
   6650.330   3.719624E+12     0.933   0.000   0.000   0.067
   6670.234   3.723160E+12     0.933   0.000   0.000   0.067
   6690.138   3.726676E+12     0.933   0.000   0.000   0.067
   6710.042   3.730170E+12     0.933   0.000   0.000   0.067
   6729.946   3.733643E+12     0.933   0.000   0.000   0.067
   6749.850   3.737095E+12     0.933   0.000   0.000   0.067
