 ****************** Start US v. 1.9 at 07-Dec-12 12:15:18 ******************
 
 output,0,0,0,0,0,0
 energy   5.300 GeV   current 250.0 mA
 sigx     1.070  mm   sigy    0.081 mm   sigx1  0.1433 mr   sigy1  0.0135 mr
 period   2.440  cm   N          40      Kx      0.000      Ky      2.350
 emin     500.0  eV   emax 100000.0 eV   ne       4999
 d       20.000   m   xpc     0.000 mm   ypc     0.000 mm
 xps      0.000  mm   yps     0.000 mm   nxp        10      nyp        10
 mode         4       method      4      iharm       0   
 nphi        20       nalpha     15      calpha2   2.0
 nomega      64       comega    8.0      nsigma      3
 
 e1      2906.6  eV   l1      4.266  A
 ptot    4613.7   W   pd      217.5  W/mm^2
 
 
 Flux through   0.000 mm x  0.000 mm pinhole at  0.000 mm,  0.000 mm @ 20.000 m:
 Integrated flux   5.542E+04 ph/s
 Integrated power        0.0 W
 Contributing harmonics    1 to   55
 
 Energy(eV)   Flux(ph/s/0.1%bw)   p1      p2      p3      p4
    500.000   2.087830E-02     0.982   0.000   0.000   0.018
    519.904   2.691191E-02     0.982   0.000   0.000   0.018
    539.808   3.217521E-02     0.982   0.000   0.000   0.018
    559.712   3.757527E-02     0.981   0.000   0.000   0.019
    579.616   4.355263E-02     0.981   0.000   0.000   0.019
    599.520   4.992677E-02     0.981   0.000   0.000   0.019
    619.424   5.655237E-02     0.980   0.000   0.000   0.020
    639.328   6.347353E-02     0.980   0.000   0.000   0.020
    659.232   7.066568E-02     0.980   0.000   0.000   0.020
    679.136   7.804602E-02     0.979   0.000   0.000   0.021
    699.040   8.557971E-02     0.979   0.000   0.000   0.021
    718.944   9.318908E-02     0.978   0.000   0.000   0.022
    738.848   1.007536E-01     0.978   0.000   0.000   0.022
    758.752   1.083684E-01     0.977   0.000   0.000   0.023
    778.656   1.160002E-01     0.976   0.000   0.000   0.024
    798.560   1.233836E-01     0.976   0.000   0.000   0.024
    818.464   1.305249E-01     0.975   0.000   0.000   0.025
    838.368   1.382399E-01     0.973   0.000   0.000   0.027
    858.272   1.473883E-01     0.969   0.000   0.000   0.031
    878.176   1.576175E-01     0.964   0.000   0.000   0.036
    898.080   1.676807E-01     0.959   0.000   0.000   0.041
    917.984   1.770242E-01     0.955   0.000   0.000   0.045
    937.888   1.861552E-01     0.952   0.000   0.000   0.048
    957.792   1.953754E-01     0.950   0.000   0.000   0.050
    977.696   2.039063E-01     0.947   0.000   0.000   0.053
    997.600   2.109509E-01     0.945   0.000   0.000   0.055
   1017.504   2.166951E-01     0.941   0.000   0.000   0.059
   1037.407   2.218123E-01     0.938   0.000   0.000   0.062
   1057.311   2.265045E-01     0.935   0.000   0.000   0.065
   1077.215   2.305402E-01     0.931   0.000   0.000   0.069
   1097.119   2.338375E-01     0.927   0.000   0.000   0.073
   1117.023   2.365210E-01     0.923   0.000   0.000   0.077
   1136.927   2.385886E-01     0.918   0.000   0.000   0.082
   1156.831   2.399077E-01     0.913   0.000   0.000   0.087
   1176.735   2.405261E-01     0.908   0.000   0.000   0.092
   1196.639   2.405053E-01     0.902   0.000   0.000   0.098
   1216.543   2.398130E-01     0.896   0.000   0.000   0.104
   1236.447   2.383990E-01     0.889   0.000   0.000   0.111
   1256.351   2.363358E-01     0.882   0.000   0.000   0.118
   1276.255   2.337012E-01     0.874   0.000   0.000   0.126
   1296.159   2.304405E-01     0.866   0.000   0.000   0.134
   1316.063   2.265413E-01     0.857   0.000   0.000   0.143
   1335.967   2.222648E-01     0.846   0.000   0.000   0.154
   1355.871   2.179625E-01     0.832   0.000   0.000   0.168
   1375.775   2.139106E-01     0.814   0.000   0.000   0.186
   1395.679   2.100455E-01     0.792   0.000   0.000   0.208
   1415.583   2.062986E-01     0.771   0.000   0.000   0.229
   1435.487   2.025741E-01     0.752   0.000   0.000   0.248
   1455.391   1.985831E-01     0.734   0.000   0.000   0.266
   1475.295   1.939889E-01     0.714   0.000   0.000   0.286
   1495.199   1.888191E-01     0.692   0.000   0.000   0.308
   1515.103   1.835344E-01     0.669   0.000   0.000   0.331
   1535.007   1.785908E-01     0.644   0.000   0.000   0.356
   1554.911   1.741550E-01     0.619   0.000   0.000   0.381
   1574.815   1.701027E-01     0.594   0.000   0.000   0.406
   1594.719   1.669719E-01     0.569   0.000   0.000   0.431
   1614.623   1.648128E-01     0.546   0.000   0.000   0.454
   1634.527   1.637931E-01     0.526   0.000   0.000   0.474
   1654.431   1.642036E-01     0.509   0.000   0.000   0.491
   1674.335   1.663187E-01     0.498   0.000   0.000   0.502
   1694.239   1.702336E-01     0.491   0.000   0.000   0.509
   1714.143   1.763139E-01     0.492   0.000   0.000   0.508
   1734.047   1.856771E-01     0.499   0.000   0.000   0.501
   1753.951   1.995394E-01     0.511   0.000   0.000   0.489
   1773.855   2.174675E-01     0.523   0.000   0.000   0.477
   1793.759   2.392842E-01     0.538   0.000   0.000   0.462
   1813.663   2.637904E-01     0.558   0.000   0.000   0.442
   1833.567   2.913245E-01     0.583   0.000   0.000   0.417
   1853.471   3.231816E-01     0.611   0.000   0.000   0.389
   1873.375   3.606969E-01     0.640   0.000   0.000   0.360
   1893.279   4.046975E-01     0.668   0.000   0.000   0.332
   1913.183   4.555327E-01     0.696   0.000   0.000   0.304
   1933.087   5.134164E-01     0.722   0.000   0.000   0.278
   1952.991   5.788078E-01     0.746   0.000   0.000   0.254
   1972.895   6.524791E-01     0.768   0.000   0.000   0.232
   1992.799   7.333395E-01     0.788   0.000   0.000   0.212
   2012.703   8.255257E-01     0.807   0.000   0.000   0.193
   2032.607   9.294449E-01     0.823   0.000   0.000   0.177
   2052.511   1.047275E+00     0.838   0.000   0.000   0.162
   2072.414   1.180643E+00     0.851   0.000   0.000   0.149
   2092.318   1.329647E+00     0.862   0.000   0.000   0.138
   2112.222   1.493736E+00     0.873   0.000   0.000   0.127
   2132.126   1.673810E+00     0.884   0.000   0.000   0.116
   2152.030   1.872775E+00     0.894   0.000   0.000   0.106
   2171.934   2.093528E+00     0.903   0.000   0.000   0.097
   2191.838   2.332372E+00     0.911   0.000   0.000   0.089
   2211.742   2.599326E+00     0.918   0.000   0.000   0.082
   2231.646   2.895575E+00     0.925   0.000   0.000   0.075
   2251.550   3.226888E+00     0.931   0.000   0.000   0.069
   2271.454   3.598158E+00     0.936   0.000   0.000   0.064
   2291.358   4.011057E+00     0.941   0.000   0.000   0.059
   2311.262   4.472675E+00     0.946   0.000   0.000   0.054
   2331.166   4.981716E+00     0.951   0.000   0.000   0.049
   2351.070   5.502633E+00     0.955   0.000   0.000   0.045
   2370.974   6.013220E+00     0.958   0.000   0.000   0.042
   2390.878   6.631292E+00     0.961   0.000   0.000   0.039
   2410.782   7.370015E+00     0.964   0.000   0.000   0.036
   2430.686   8.097468E+00     0.967   0.000   0.000   0.033
   2450.590   8.847030E+00     0.969   0.000   0.000   0.031
   2470.494   9.777221E+00     0.972   0.000   0.000   0.028
   2490.398   1.082499E+01     0.975   0.000   0.000   0.025
   2510.302   1.185884E+01     0.977   0.000   0.000   0.023
   2530.206   1.303463E+01     0.978   0.000   0.000   0.022
   2550.110   1.449303E+01     0.980   0.000   0.000   0.020
   2570.014   1.602820E+01     0.982   0.000   0.000   0.018
   2589.918   1.757671E+01     0.984   0.000   0.000   0.016
   2609.822   1.948047E+01     0.985   0.000   0.000   0.015
   2629.726   2.178487E+01     0.987   0.000   0.000   0.013
   2649.630   2.412644E+01     0.988   0.000   0.000   0.012
   2669.534   2.668991E+01     0.989   0.000   0.000   0.011
   2689.438   3.006394E+01     0.991   0.000   0.000   0.009
   2709.342   3.400977E+01     0.992   0.000   0.000   0.008
   2729.246   3.810073E+01     0.993   0.000   0.000   0.007
   2749.150   4.334528E+01     0.994   0.000   0.000   0.006
   2769.054   5.070294E+01     0.995   0.000   0.000   0.005
   2788.958   5.890209E+01     0.996   0.000   0.000   0.004
   2808.862   6.768081E+01     0.997   0.000   0.000   0.003
   2828.766   8.150344E+01     0.998   0.000   0.000   0.002
   2848.670   1.025839E+02     0.998   0.000   0.000   0.002
   2868.574   1.196934E+02     0.999   0.000   0.000   0.001
   2888.478   1.138254E+02     0.999   0.000   0.000   0.001
   2908.382   8.041613E+01     0.999   0.000   0.000   0.001
   2928.286   3.855715E+01     0.998   0.000   0.000   0.002
   2948.190   1.161847E+01     0.992   0.000   0.000   0.008
   2968.094   4.295285E+00     0.979   0.000   0.000   0.021
   2987.998   4.895068E+00     0.981   0.000   0.000   0.019
   3007.902   4.028598E+00     0.977   0.000   0.000   0.023
   3027.806   2.126852E+00     0.955   0.000   0.000   0.045
   3047.710   1.758696E+00     0.945   0.000   0.000   0.055
   3067.614   2.025185E+00     0.951   0.000   0.000   0.049
   3087.518   1.559635E+00     0.935   0.000   0.000   0.065
   3107.421   1.044116E+00     0.902   0.000   0.000   0.098
   3127.325   1.123993E+00     0.907   0.000   0.000   0.093
   3147.229   1.178495E+00     0.910   0.000   0.000   0.090
   3167.133   8.877728E-01     0.878   0.000   0.000   0.122
   3187.037   7.479484E-01     0.853   0.000   0.000   0.147
   3206.941   8.598269E-01     0.870   0.000   0.000   0.130
   3226.845   8.225961E-01     0.861   0.000   0.000   0.139
   3246.749   6.543975E-01     0.822   0.000   0.000   0.178
   3266.653   6.557022E-01     0.820   0.000   0.000   0.180
   3286.557   7.315607E-01     0.836   0.000   0.000   0.164
   3306.461   6.652736E-01     0.816   0.000   0.000   0.184
   3326.365   5.885376E-01     0.789   0.000   0.000   0.211
   3346.269   6.410046E-01     0.803   0.000   0.000   0.197
   3366.173   6.757073E-01     0.810   0.000   0.000   0.190
   3386.077   6.144430E-01     0.788   0.000   0.000   0.212
   3405.981   5.999872E-01     0.780   0.000   0.000   0.220
   3425.885   6.579752E-01     0.796   0.000   0.000   0.204
   3445.789   6.591762E-01     0.793   0.000   0.000   0.207
   3465.693   6.098304E-01     0.773   0.000   0.000   0.227
   3485.597   6.193555E-01     0.773   0.000   0.000   0.227
   3505.501   6.605087E-01     0.783   0.000   0.000   0.217
   3525.405   7.045161E-01     0.792   0.000   0.000   0.208
   3545.309   7.529057E-01     0.800   0.000   0.000   0.200
   3565.213   8.056676E-01     0.807   0.000   0.000   0.193
   3585.117   8.617996E-01     0.814   0.000   0.000   0.186
   3605.021   9.197974E-01     0.821   0.000   0.000   0.179
   3624.925   9.792126E-01     0.829   0.000   0.000   0.171
   3644.829   1.040972E+00     0.837   0.000   0.000   0.163
   3664.733   1.106167E+00     0.845   0.000   0.000   0.155
   3684.637   1.175095E+00     0.852   0.000   0.000   0.148
   3704.541   1.247620E+00     0.858   0.000   0.000   0.142
   3724.445   1.323216E+00     0.865   0.000   0.000   0.135
   3744.349   1.403250E+00     0.871   0.000   0.000   0.129
   3764.253   1.487420E+00     0.877   0.000   0.000   0.123
   3784.157   1.575752E+00     0.883   0.000   0.000   0.117
   3804.061   1.668454E+00     0.888   0.000   0.000   0.112
   3823.965   1.765784E+00     0.893   0.000   0.000   0.107
   3843.869   1.867824E+00     0.898   0.000   0.000   0.102
   3863.773   1.974664E+00     0.902   0.000   0.000   0.098
   3883.677   2.086571E+00     0.907   0.000   0.000   0.093
   3903.581   2.203763E+00     0.911   0.000   0.000   0.089
   3923.485   2.326270E+00     0.915   0.000   0.000   0.085
   3943.389   2.452986E+00     0.919   0.000   0.000   0.081
   3963.293   2.586308E+00     0.922   0.000   0.000   0.078
   3983.197   2.725569E+00     0.926   0.000   0.000   0.074
   4003.101   2.870694E+00     0.929   0.000   0.000   0.071
   4023.005   3.021781E+00     0.932   0.000   0.000   0.068
   4042.909   3.179087E+00     0.935   0.000   0.000   0.065
   4062.813   3.342483E+00     0.938   0.000   0.000   0.062
   4082.717   3.512217E+00     0.941   0.000   0.000   0.059
   4102.621   3.690612E+00     0.943   0.000   0.000   0.057
   4122.525   3.881170E+00     0.945   0.000   0.000   0.055
   4142.428   4.082945E+00     0.946   0.000   0.000   0.054
   4162.332   4.294618E+00     0.948   0.000   0.000   0.052
   4182.236   4.510620E+00     0.950   0.000   0.000   0.050
   4202.140   4.730595E+00     0.952   0.000   0.000   0.048
   4222.044   4.957615E+00     0.954   0.000   0.000   0.046
   4241.948   5.193984E+00     0.956   0.000   0.000   0.044
   4261.852   5.439704E+00     0.958   0.000   0.000   0.042
   4281.756   5.694223E+00     0.959   0.000   0.000   0.041
   4301.660   5.957750E+00     0.961   0.000   0.000   0.039
   4321.564   6.230820E+00     0.963   0.000   0.000   0.037
   4341.468   6.513719E+00     0.964   0.000   0.000   0.036
   4361.372   6.803785E+00     0.966   0.000   0.000   0.034
   4381.276   7.105887E+00     0.967   0.000   0.000   0.033
   4401.180   7.418538E+00     0.969   0.000   0.000   0.031
   4421.084   7.742138E+00     0.970   0.000   0.000   0.030
   4440.988   8.076220E+00     0.971   0.000   0.000   0.029
   4460.892   8.419981E+00     0.972   0.000   0.000   0.028
   4480.796   8.774923E+00     0.973   0.000   0.000   0.027
   4500.700   9.146149E+00     0.975   0.000   0.000   0.025
   4520.604   9.538083E+00     0.976   0.000   0.000   0.024
   4540.508   9.948360E+00     0.977   0.000   0.000   0.023
   4560.412   1.036552E+01     0.978   0.000   0.000   0.022
   4580.316   1.078932E+01     0.978   0.000   0.000   0.022
   4600.220   1.121953E+01     0.979   0.000   0.000   0.021
   4620.124   1.166118E+01     0.980   0.000   0.000   0.020
   4640.028   1.211602E+01     0.981   0.000   0.000   0.019
   4659.932   1.258287E+01     0.982   0.000   0.000   0.018
   4679.836   1.306179E+01     0.983   0.000   0.000   0.017
   4699.740   1.355401E+01     0.984   0.000   0.000   0.016
   4719.644   1.405899E+01     0.984   0.000   0.000   0.016
   4739.548   1.457546E+01     0.985   0.000   0.000   0.015
   4759.452   1.510624E+01     0.986   0.000   0.000   0.014
   4779.356   1.565302E+01     0.986   0.000   0.000   0.014
   4799.260   1.622738E+01     0.987   0.000   0.000   0.013
   4819.164   1.681969E+01     0.988   0.000   0.000   0.012
   4839.068   1.741940E+01     0.988   0.000   0.000   0.012
   4858.972   1.802175E+01     0.989   0.000   0.000   0.011
   4878.876   1.863089E+01     0.989   0.000   0.000   0.011
   4898.780   1.925236E+01     0.990   0.000   0.000   0.010
   4918.684   1.988590E+01     0.990   0.000   0.000   0.010
   4938.588   2.052856E+01     0.991   0.000   0.000   0.009
   4958.492   2.118278E+01     0.991   0.000   0.000   0.009
   4978.396   2.185114E+01     0.991   0.000   0.000   0.009
   4998.300   2.254506E+01     0.992   0.000   0.000   0.008
   5018.204   2.325404E+01     0.992   0.000   0.000   0.008
   5038.108   2.396598E+01     0.993   0.000   0.000   0.007
   5058.012   2.467402E+01     0.993   0.000   0.000   0.007
   5077.916   2.538149E+01     0.993   0.000   0.000   0.007
   5097.820   2.609796E+01     0.993   0.000   0.000   0.007
   5117.724   2.682999E+01     0.994   0.000   0.000   0.006
   5137.628   2.757337E+01     0.994   0.000   0.000   0.006
   5157.532   2.831505E+01     0.994   0.000   0.000   0.006
   5177.435   2.904167E+01     0.994   0.000   0.000   0.006
   5197.339   2.976228E+01     0.994   0.000   0.000   0.006
   5217.243   3.048249E+01     0.994   0.000   0.000   0.006
   5237.147   3.120277E+01     0.994   0.000   0.000   0.006
   5257.051   3.191602E+01     0.995   0.000   0.000   0.005
   5276.955   3.261509E+01     0.995   0.000   0.000   0.005
   5296.859   3.329632E+01     0.994   0.000   0.000   0.006
   5316.763   3.395882E+01     0.994   0.000   0.000   0.006
   5336.667   3.460383E+01     0.994   0.000   0.000   0.006
   5356.571   3.522700E+01     0.994   0.000   0.000   0.006
   5376.475   3.581538E+01     0.994   0.000   0.000   0.006
   5396.379   3.635931E+01     0.993   0.000   0.000   0.007
   5416.283   3.686000E+01     0.993   0.000   0.000   0.007
   5436.187   3.731050E+01     0.992   0.000   0.000   0.008
   5456.091   3.769380E+01     0.991   0.000   0.000   0.009
   5475.995   3.800170E+01     0.991   0.000   0.000   0.009
   5495.899   3.823299E+01     0.989   0.000   0.000   0.011
   5515.803   3.836806E+01     0.988   0.000   0.000   0.012
   5535.707   3.837676E+01     0.986   0.000   0.000   0.014
   5555.611   3.824821E+01     0.984   0.000   0.000   0.016
   5575.515   3.797124E+01     0.982   0.000   0.000   0.018
   5595.419   3.749947E+01     0.979   0.000   0.000   0.021
   5615.323   3.679412E+01     0.977   0.000   0.000   0.023
   5635.227   3.585761E+01     0.973   0.000   0.000   0.027
   5655.131   3.464939E+01     0.970   0.000   0.000   0.030
   5675.035   3.302449E+01     0.966   0.000   0.000   0.034
   5694.939   3.088508E+01     0.961   0.000   0.000   0.039
   5714.843   2.831065E+01     0.956   0.000   0.000   0.044
   5734.747   2.533995E+01     0.950   0.000   0.000   0.050
   5754.651   2.172707E+01     0.944   0.000   0.000   0.056
   5774.555   1.727986E+01     0.940   0.000   0.000   0.060
   5794.459   1.250917E+01     0.939   0.000   0.000   0.061
   5814.363   8.567596E+00     0.942   0.000   0.000   0.058
   5834.267   6.300409E+00     0.948   0.000   0.000   0.052
   5854.171   5.525208E+00     0.953   0.000   0.000   0.047
   5874.075   5.421413E+00     0.954   0.000   0.000   0.046
   5893.979   5.396304E+00     0.955   0.000   0.000   0.045
   5913.883   5.364778E+00     0.957   0.000   0.000   0.043
   5933.787   5.404844E+00     0.958   0.000   0.000   0.042
   5953.691   5.493939E+00     0.959   0.000   0.000   0.041
   5973.595   5.581227E+00     0.960   0.000   0.000   0.040
   5993.499   5.677592E+00     0.961   0.000   0.000   0.039
   6013.403   5.799116E+00     0.962   0.000   0.000   0.038
   6033.307   5.930856E+00     0.963   0.000   0.000   0.037
   6053.211   6.061680E+00     0.964   0.000   0.000   0.036
   6073.115   6.203014E+00     0.965   0.000   0.000   0.035
   6093.019   6.357076E+00     0.966   0.000   0.000   0.034
   6112.923   6.513792E+00     0.967   0.000   0.000   0.033
   6132.827   6.673170E+00     0.968   0.000   0.000   0.032
   6152.731   6.841418E+00     0.969   0.000   0.000   0.031
   6172.635   7.016974E+00     0.970   0.000   0.000   0.030
   6192.539   7.199158E+00     0.971   0.000   0.000   0.029
   6212.442   7.394468E+00     0.972   0.000   0.000   0.028
   6232.346   7.599960E+00     0.972   0.000   0.000   0.028
   6252.250   7.807289E+00     0.973   0.000   0.000   0.027
   6272.154   8.009477E+00     0.974   0.000   0.000   0.026
   6292.058   8.212599E+00     0.975   0.000   0.000   0.025
   6311.962   8.421150E+00     0.976   0.000   0.000   0.024
   6331.866   8.633966E+00     0.976   0.000   0.000   0.024
   6351.770   8.849245E+00     0.977   0.000   0.000   0.023
   6371.674   9.069678E+00     0.978   0.000   0.000   0.022
   6391.578   9.295947E+00     0.978   0.000   0.000   0.022
   6411.482   9.525693E+00     0.979   0.000   0.000   0.021
   6431.386   9.756118E+00     0.980   0.000   0.000   0.020
   6451.290   9.990431E+00     0.980   0.000   0.000   0.020
   6471.194   1.022753E+01     0.981   0.000   0.000   0.019
   6491.098   1.046729E+01     0.981   0.000   0.000   0.019
   6511.002   1.070935E+01     0.982   0.000   0.000   0.018
   6530.906   1.095374E+01     0.982   0.000   0.000   0.018
   6550.810   1.120059E+01     0.983   0.000   0.000   0.017
   6570.714   1.144961E+01     0.983   0.000   0.000   0.017
   6590.618   1.170046E+01     0.984   0.000   0.000   0.016
   6610.522   1.195329E+01     0.984   0.000   0.000   0.016
   6630.426   1.220812E+01     0.985   0.000   0.000   0.015
   6650.330   1.246160E+01     0.985   0.000   0.000   0.015
   6670.234   1.271812E+01     0.986   0.000   0.000   0.014
